BEGIN_SCAN_DATA
	FORMAT=CC-Export V1.9                  
	FILE_CREATION_DATE=01-Aug-2015 19:47:17
	LAST_MODIFIED=01-Aug-2015 19:47:17
	BEGIN_SCAN  1
		TASK_NAME=tba PDD Profiles
		PROGRAM=tbaScan
		COMMENT=MicroDiamond P1
		MEAS_DATE=01-Aug-2015 19:38:38
		LINAC=J1 MRL
		MODALITY=X
		ISOCENTER=1000.00
		INPLANE_AXIS=Y
		CROSSPLANE_AXIS=X
		DEPTH_AXIS=Z
		INPLANE_AXIS_DIR=TARGET_GUN
		CROSSPLANE_AXIS_DIR=LEFT_RIGHT
		DEPTH_AXIS_DIR=UP_DOWN
		ENERGY=7.00
		NOMINAL_DMAX=17.00
		SSD=1335.00
		SCD=494.00
		BLOCK=0
		WEDGE_ANGLE=0.00
		FIELD_INPLANE=10.00
		FIELD_CROSSPLANE=10.00
		FIELD_TYPE=RECTANGULAR
		GANTRY=0.00
		GANTRY_UPRIGHT_POSITION=0
		GANTRY_ROTATION=CW
		COLL_ANGLE=0.00
		COLL_OFFSET_INPLANE=0.00
		COLL_OFFSET_CROSSPLANE=0.00
		SCAN_DEVICE=MP3
		SCAN_DEVICE_SETUP=BARA_LEFT_RIGHT
		ELECTROMETER=TANDEM
		RANGE_FIELD=LOW
		RANGE_REFERENCE=AUTO
		DETECTOR=DIAMOND_DETECTOR
		DETECTOR_RADIUS=0.00
		DETECTOR_NAME=PTW 60003 Diamond
		DETECTOR_SN=0000
		DETECTOR_CALIBRATION=10000000.00
		DETECTOR_IS_CALIBRATED=0
		DETECTOR_REFERENCE=THIMBLE_CHAMBER
		DETECTOR_REFERENCE_SUBCODE=SEMIFLEX
		DETECTOR_REFERENCE_RADIUS=2.75
		DETECTOR_REFERENCE_NAME=PTW 31010 Semiflex
		DETECTOR_REFERENCE_SN=0000
		DETECTOR_REFERENCE_IS_CALIBRATED=0
		DETECTOR_REFERENCE_CALIBRATION=300000000.00
		DETECTOR_HV=0.0
		DETECTOR_REFERENCE_HV=-400.0
		REF_FIELD_DEPTH=-335.00
		REF_FIELD_DEFINED=ISOCENTER
		REF_FIELD_INPLANE=100.00
		REF_FIELD_CROSSPLANE=100.00
		REF_SCAN_POSITIONS=-5.00;-4.50;-4.00;-3.50;-3.00;-2.50;-2.00;-1.50;-1.00;-0.50;0.00;0.50;1.00;1.50;2.00;2.50;3.00;3.50;4.00;4.50;5.00;5.50;6.00;6.50;7.00;7.50;8.00;8.50;9.00;9.50;10.00;10.50;11.00;11.50;12.00;12.50;13.00;13.50;14.00;14.50;15.00;15.50;16.00;16.50;17.00;17.50;18.00;18.50;19.00;19.50;20.00;20.50;21.00;21.50;22.00;22.50;23.00;23.50;24.00;24.50;25.00;25.50;26.00;26.50;27.00;27.50;28.00;28.50;29.00;29.50;30.00;31.00;32.00;33.00;34.00;35.00;36.00;37.00;38.00;39.00;40.00;41.00;42.00;43.00;44.00;45.00;46.00;47.00;48.00;49.00;50.00;51.00;52.00;53.00;54.00;55.00;56.00;57.00;58.00;59.00;60.00;61.00;62.00;63.00;64.00;65.00;66.00;67.00;68.00;69.00;70.00;71.00;72.00;73.00;74.00;75.00;76.00;77.00;78.00;79.00;80.00;81.00;82.00;83.00;84.00;85.00;86.00;87.00;88.00;89.00;90.00;91.00;92.00;93.00;94.00;95.00;96.00;97.00;98.00;99.00;100.00;105.00;110.00;115.00;120.00;125.00;130.00;135.00;140.00;145.00;150.00;155.00;160.00;165.00;170.00;175.00;180.00;185.00;190.00;195.00;200.00;205.00;210.00;215.00;220.00;225.00;230.00;235.00;240.00;245.00;250.00;255.00;260.00;265.00;270.00;
		SCAN_CURVETYPE=PDD
		SCAN_OFFAXIS_INPLANE=0.00
		SCAN_OFFAXIS_CROSSPLANE=0.00
		SCAN_ANGLE=0.00
		SCAN_DIAGONAL=NOT_DIAGONAL
		SCAN_DIRECTION=NEGATIVE
		MEAS_MEDIUM=PMMA
		MEAS_PRESET=REFERENCE_DOSEMETER
		MEAS_TIME=1.000
		MEAS_UNIT=A.U.
		SCAN_SPEEDS=20.00; 5.00;40.00; 5.00;100.00; 5.00;270.00; 5.00;
		DELAY_TIMES=10.00; 0.500;150.00; 0.000;270.00; 0.000;
		PRESSURE=1013.25
		TEMPERATURE=20.00
		NORM_TEMPERATURE=20.00
		CORRECTION_FACTOR=1.0000
		EXPECTED_MAX_DOSE_RATE=1.00
		BEGIN_DATA
			-5.00		4.8208E-03		2.3274E+00
			-4.50		4.8042E-03		2.3292E+00
			-4.00		4.8157E-03		2.3274E+00
			-3.50		4.8002E-03		2.3274E+00
			-3.00		4.7913E-03		2.3292E+00
			-2.50		4.8002E-03		2.3274E+00
			-2.00		4.8016E-03		2.3292E+00
			-1.50		4.7656E-03		2.3292E+00
			-1.00		4.7707E-03		2.3292E+00
			-0.50		4.7542E-03		2.3310E+00
			0.00		4.7516E-03		2.3310E+00
			0.50		4.7465E-03		2.3310E+00
			1.00		4.7810E-03		2.3292E+00
			1.50		5.4723E-03		2.3310E+00
			2.00		6.1236E-03		2.3310E+00
			2.50		6.6461E-03		2.3310E+00
			3.00		7.1091E-03		2.3328E+00
			3.50		7.4955E-03		2.3310E+00
			4.00		7.8215E-03		2.3328E+00
			4.50		8.0890E-03		2.3328E+00
			5.00		8.3475E-03		2.3310E+00
			5.50		8.5185E-03		2.3328E+00
			6.00		8.6847E-03		2.3310E+00
			6.50		8.8443E-03		2.3310E+00
			7.00		8.9653E-03		2.3310E+00
			7.50		9.0682E-03		2.3310E+00
			8.00		9.1384E-03		2.3328E+00
			8.50		9.2201E-03		2.3310E+00
			9.00		9.2907E-03		2.3346E+00
			9.50		9.3436E-03		2.3310E+00
			10.00		9.3900E-03		2.3310E+00
			10.50		9.4106E-03		2.3310E+00
			11.00		9.4444E-03		2.3328E+00
			11.50		9.4672E-03		2.3310E+00
			12.00		9.4676E-03		2.3328E+00
			12.50		9.4985E-03		2.3328E+00
			13.00		9.4805E-03		2.3328E+00
			13.50		9.4676E-03		2.3328E+00
			14.00		9.4603E-03		2.3346E+00
			14.50		9.4805E-03		2.3328E+00
			15.00		9.4805E-03		2.3328E+00
			15.50		9.4444E-03		2.3328E+00
			16.00		9.4243E-03		2.3346E+00
			16.50		9.4187E-03		2.3328E+00
			17.00		9.4213E-03		2.3328E+00
			17.50		9.4007E-03		2.3328E+00
			18.00		9.3724E-03		2.3328E+00
			18.50		9.3493E-03		2.3328E+00
			19.00		9.3236E-03		2.3328E+00
			19.50		9.3338E-03		2.3328E+00
			20.00		9.2824E-03		2.3328E+00
			20.50		9.2593E-03		2.3328E+00
			21.00		9.2207E-03		2.3328E+00
			21.50		9.2104E-03		2.3328E+00
			22.00		9.1744E-03		2.3328E+00
			22.50		9.1307E-03		2.3328E+00
			23.00		9.1127E-03		2.3328E+00
			23.50		9.0953E-03		2.3346E+00
			24.00		9.0689E-03		2.3328E+00
			24.50		9.0476E-03		2.3310E+00
			25.00		9.0296E-03		2.3310E+00
			25.50		8.9866E-03		2.3328E+00
			26.00		8.9781E-03		2.3310E+00
			26.50		8.9275E-03		2.3328E+00
			27.00		8.8829E-03		2.3310E+00
			27.50		8.8632E-03		2.3328E+00
			28.00		8.8588E-03		2.3292E+00
			28.50		8.8117E-03		2.3328E+00
			29.00		8.7876E-03		2.3310E+00
			29.50		8.7542E-03		2.3310E+00
			30.00		8.7259E-03		2.3310E+00
			31.00		8.6667E-03		2.3310E+00
			32.00		8.6049E-03		2.3310E+00
			33.00		8.5755E-03		2.3292E+00
			34.00		8.5317E-03		2.3292E+00
			35.00		8.4532E-03		2.3274E+00
			36.00		8.4223E-03		2.3274E+00
			37.00		8.3424E-03		2.3274E+00
			38.00		8.2844E-03		2.3292E+00
			39.00		8.2573E-03		2.3274E+00
			40.00		8.1837E-03		2.3256E+00
			41.00		8.1553E-03		2.3256E+00
			42.00		8.1192E-03		2.3256E+00
			43.00		8.0403E-03		2.3238E+00
			44.00		7.9783E-03		2.3238E+00
			45.00		7.9360E-03		2.3256E+00
			46.00		7.8983E-03		2.3238E+00
			47.00		7.8182E-03		2.3238E+00
			48.00		7.7623E-03		2.3220E+00
			49.00		7.7399E-03		2.3202E+00
			50.00		7.6881E-03		2.3202E+00
			51.00		7.6460E-03		2.3220E+00
			52.00		7.5976E-03		2.3202E+00
			53.00		7.5278E-03		2.3202E+00
			54.00		7.4910E-03		2.3220E+00
			55.00		7.4425E-03		2.3202E+00
			56.00		7.3778E-03		2.3202E+00
			57.00		7.3597E-03		2.3202E+00
			58.00		7.3002E-03		2.3202E+00
			59.00		7.2563E-03		2.3202E+00
			60.00		7.2123E-03		2.3202E+00
			61.00		7.1739E-03		2.3184E+00
			62.00		7.1192E-03		2.3202E+00
			63.00		7.0629E-03		2.3166E+00
			64.00		7.0471E-03		2.3184E+00
			65.00		6.9930E-03		2.3166E+00
			66.00		6.9334E-03		2.3166E+00
			67.00		6.8896E-03		2.3148E+00
			68.00		6.8481E-03		2.3148E+00
			69.00		6.8118E-03		2.3148E+00
			70.00		6.7601E-03		2.3130E+00
			71.00		6.7264E-03		2.3112E+00
			72.00		6.6589E-03		2.3130E+00
			73.00		6.6511E-03		2.3112E+00
			74.00		6.5966E-03		2.3112E+00
			75.00		6.5367E-03		2.3076E+00
			76.00		6.5161E-03		2.3112E+00
			77.00		6.4611E-03		2.3058E+00
			78.00		6.4221E-03		2.3058E+00
			79.00		6.3880E-03		2.3040E+00
			80.00		6.3539E-03		2.3022E+00
			81.00		6.3253E-03		2.3022E+00
			82.00		6.2780E-03		2.3004E+00
			83.00		6.2180E-03		2.3004E+00
			84.00		6.1942E-03		2.2986E+00
			85.00		6.1446E-03		2.2986E+00
			86.00		6.1181E-03		2.2968E+00
			87.00		6.0763E-03		2.2968E+00
			88.00		6.0361E-03		2.2932E+00
			89.00		6.0256E-03		2.2932E+00
			90.00		5.9524E-03		2.2932E+00
			91.00		5.9053E-03		2.2932E+00
			92.00		5.8791E-03		2.2932E+00
			93.00		5.8288E-03		2.2914E+00
			94.00		5.7973E-03		2.2914E+00
			95.00		5.7947E-03		2.2914E+00
			96.00		5.7371E-03		2.2914E+00
			97.00		5.7075E-03		2.2896E+00
			98.00		5.6779E-03		2.2878E+00
			99.00		5.6237E-03		2.2896E+00
			100.00		5.6106E-03		2.2896E+00
			105.00		5.4288E-03		2.2878E+00
			110.00		5.2741E-03		2.2878E+00
			115.00		5.1022E-03		2.2896E+00
			120.00		4.9672E-03		2.2878E+00
			125.00		4.8151E-03		2.2878E+00
			130.00		4.6593E-03		2.2896E+00
			135.00		4.5283E-03		2.2896E+00
			140.00		4.3876E-03		2.2878E+00
			145.00		4.2644E-03		2.2878E+00
			150.00		4.1129E-03		2.2860E+00
			155.00		4.0236E-03		2.2860E+00
			160.00		3.8828E-03		2.2824E+00
			165.00		3.7915E-03		2.2788E+00
			170.00		3.6753E-03		2.2806E+00
			175.00		3.5626E-03		2.2770E+00
			180.00		3.4600E-03		2.2734E+00
			185.00		3.3703E-03		2.2698E+00
			190.00		3.2646E-03		2.2698E+00
			195.00		3.1902E-03		2.2644E+00
			200.00		3.0843E-03		2.2644E+00
			205.00		2.9968E-03		2.2644E+00
			210.00		2.9117E-03		2.2626E+00
			215.00		2.8317E-03		2.2608E+00
			220.00		2.7490E-03		2.2590E+00
			225.00		2.6794E-03		2.2572E+00
			230.00		2.6044E-03		2.2554E+00
			235.00		2.5293E-03		2.2536E+00
			240.00		2.4627E-03		2.2536E+00
			245.00		2.3874E-03		2.2518E+00
			250.00		2.3253E-03		2.2500E+00
			255.00		2.2525E-03		2.2482E+00
			260.00		2.1955E-03		2.2464E+00
			265.00		2.1285E-03		2.2410E+00
			270.00		2.0682E-03		2.2338E+00
		END_DATA
	END_SCAN  1
END_SCAN_DATA
